"Time (s)","Linear Acceleration x (m/s^2)","Linear Acceleration y (m/s^2)","Linear Acceleration z (m/s^2)","Absolute acceleration (m/s^2)"
1.106249983E-3,-2.092751226E0,1.089027543E0,1.859671855E-1,2.366468356E0
1.111020835E-2,-1.916091054E0,1.597013758E0,1.413647414E0,2.867099036E0
2.111520839E-2,-1.474823762E0,1.592557595E0,1.618633254E0,2.707640750E0
3.112020832E-2,-1.077119396E0,1.032197285E0,8.443543124E-1,1.714220415E0
4.112420836E-2,-6.569102664E-1,4.828309089E-1,-7.541618150E-2,8.187456169E-1
5.112920841E-2,-2.932562837E-1,2.491323173E-1,-6.904298687E-1,7.904173347E-1
6.113320834E-2,-1.326236218E-2,1.651277089E-1,-1.058077061E0,1.070966908E0
7.113820838E-2,8.583127856E-2,1.049399793E-1,-1.167494911E0,1.175339855E0
8.114320843E-2,1.388123149E-1,8.704749942E-2,-1.183581698E0,1.194868931E0
9.114720835E-2,5.986876398E-2,5.564210415E-2,-1.192182952E0,1.194981382E0
1.011522084E-1,1.568653008E-1,1.137470555E-1,-1.064445848E0,1.081938113E0
1.111562083E-1,1.701737098E-1,2.015301347E-1,-7.810943826E-1,8.244282390E-1
1.211612084E-1,7.674353600E-2,2.416654229E-1,-4.192022391E-1,4.899206713E-1
1.311662084E-1,-2.933005764E-1,7.896781683E-2,-1.893049224E-1,3.579071078E-1
1.411702083E-1,-6.060239951E-1,-1.811303687E-1,-1.273674866E-1,6.452098649E-1
1.511752084E-1,-8.494890448E-1,-3.909477621E-1,-9.589316726E-2,9.400357916E-1
1.611802083E-1,-1.117534035E0,-6.127455157E-1,1.228010304E-1,1.280398172E0
1.711842084E-1,-1.341023827E0,-7.782199645E-1,5.642247355E-1,1.649945687E0
1.811892084E-1,-1.148650139E0,-7.647275144E-1,1.348138719E0,1.929166483E0
1.911932083E-1,-1.018777632E0,-7.460766506E-1,2.323551353E0,2.644509241E0
2.011982084E-1,-1.083756717E0,-8.051861537E-1,3.309203632E0,3.574028825E0
2.112032084E-1,-1.461840166E0,-7.893337673E-1,3.875902909E0,4.216947691E0
2.212072083E-1,-2.005415459E0,-2.575797898E-1,3.989228088E0,4.472357236E0
2.312122084E-1,-2.566946090E0,6.686677015E-1,3.567905502E0,4.445928294E0
2.412162083E-1,-3.113047088E0,1.414867728E0,1.761848083E0,3.846689685E0
2.512212084E-1,-3.616031595E0,1.461886944E0,-1.461098739E0,4.165045913E0
2.612262084E-1,-4.158008552E0,1.034594643E0,-3.911864455E0,5.801905266E0
2.712302083E-1,-5.001891872E0,6.926138037E-1,-4.174231360E0,6.551552764E0
2.812352084E-1,-5.846518664E0,4.284746075E-1,-2.899165880E0,6.539918484E0
2.912402083E-1,-7.097213534E0,1.092142940E-2,1.140780079E-1,7.098138701E0
3.012442084E-1,-9.335715382E0,-7.730247134E-1,4.173763583E0,1.025541083E1
3.112492084E-1,-1.013099109E1,-1.329985453E0,4.012993804E0,1.097770290E1
3.212532083E-1,-9.362538899E0,-1.509776224E0,1.203801223E0,9.559586616E0
3.312582084E-1,-8.495517270E0,-1.589057452E0,-7.464789391E-2,8.643175897E0
3.412632084E-1,-8.026103382E0,-1.518437120E0,5.672594404E-1,8.188148146E0
3.512672083E-1,-7.844640307E0,-1.563933136E0,1.269146636E0,8.099074119E0
3.612722084E-1,-7.441397604E0,-1.559721971E0,2.147086039E0,7.900449949E0
3.712762083E-1,-5.563421041E0,-1.275541443E0,4.136073600E0,7.048812983E0
3.812812084E-1,-3.622666723E0,-8.482134748E-1,5.895063418E0,6.971008033E0
3.912862084E-1,-2.081771325E0,-5.863658023E-1,4.882603995E0,5.340170266E0
4.012902083E-1,-4.721331355E-1,-8.923307168E-1,3.715561731E0,3.850267884E0
4.112952084E-1,6.958999389E-1,-2.009779236E0,2.995383568E0,3.673664658E0
4.213002084E-1,1.480726965E0,-3.227446108E0,1.979497676E0,4.065387039E0
4.313042084E-1,2.250766967E0,-4.266972293E0,1.297572144E0,4.995667919E0
4.413092084E-1,3.090456371E0,-5.092651768E0,7.378414321E-1,6.002535514E0
4.513142083E-1,3.860103148E0,-5.720904100E0,2.696385026E-1,6.906652225E0
4.613182084E-1,4.262306215E0,-6.090890763E0,2.387733901E-1,7.437957871E0
4.713232084E-1,4.466866085E0,-5.976511624E0,1.934697479E-1,7.463847155E0
4.813272083E-1,3.625136295E0,-4.875134177E0,-2.821633299E-2,6.075305964E0
4.913322084E-1,2.183518140E0,-3.106433887E0,-5.470140409E-1,3.836262155E0
5.013372083E-1,1.370655177E0,-1.774482601E0,-6.911069763E-1,2.346297715E0
5.113412084E-1,9.433853880E-1,-8.365447712E-1,-6.450718474E-1,1.416298285E0
5.213462084E-1,7.722072726E-1,-1.540776408E-1,-9.669271553E-1,1.246993230E0
5.313502083E-1,7.928961834E-1,2.790981281E-1,-1.697656034E0,1.894364309E0
5.413552084E-1,8.812467349E-1,5.943776572E-1,-2.588204520E0,2.797978421E0
5.513602084E-1,6.852299398E-1,5.319697398E-1,-2.900491444E0,3.027438272E0
5.613642083E-1,6.387135851E-1,1.337351775E-1,-2.521584853E0,2.604655507E0
5.713692084E-1,1.864826176E0,-2.102284527E-1,-2.121680326E0,2.832543040E0
5.813742083E-1,3.262220085E0,-3.469796240E-1,-1.903619528E0,3.792919990E0
5.913782084E-1,4.431015928E0,-3.369183201E-1,-1.696401222E0,4.756594708E0
6.013832084E-1,5.380364015E0,-1.881253928E-1,-1.405921050E0,5.564200040E0
6.113872083E-1,5.978248832E0,1.291410202E-1,-1.188376999E0,6.096587274E0
6.213922084E-1,6.248258632E0,5.898396331E-1,-1.059749511E0,6.364881441E0
6.313972083E-1,6.169972601E0,1.098404138E0,-9.049361444E-1,6.331979388E0
6.414012084E-1,6.178621802E0,1.611830018E0,-1.029036280E0,6.467787802E0
6.514062084E-1,6.341455649E0,2.082471821E0,-1.464388675E0,6.833387361E0
6.614102083E-1,6.467060273E0,2.496535381E0,-1.884952877E0,7.183912919E0
6.714152084E-1,6.629902305E0,2.659789057E0,-2.313042883E0,7.508678298E0
6.814202084E-1,6.528278282E0,2.610598771E0,-2.557139432E0,7.481484167E0
6.914242083E-1,6.274946494E0,2.451001359E0,-2.727375269E0,7.267801388E0
7.014292084E-1,6.021494254E0,2.329051244E0,-2.722886946E0,7.006924152E0
7.114342083E-1,5.728289133E0,2.318559000E0,-2.567445735E0,6.691845025E0
7.214382084E-1,5.597332553E0,2.493496583E0,-2.276980619E0,6.536994543E0
7.314432084E-1,5.374575856E0,2.708357785E0,-2.011734545E0,6.345734268E0
7.414472083E-1,5.049474174E0,2.836964954E0,-1.717274758E0,6.041075416E0
7.514522084E-1,4.771351654E0,2.908879859E0,-1.287729964E0,5.734599123E0
7.614572084E-1,4.322928393E0,2.786930330E0,-6.312064911E-1,5.181998860E0
7.714612084E-1,3.407208229E0,2.226334376E0,2.140862994E-1,4.075716577E0
7.814662084E-1,1.070159748E0,7.071523207E-1,1.383343635E0,1.886516870E0
7.914712083E-1,-2.818486583E0,-1.601298598E0,3.790786160E0,4.987793453E0
8.014752084E-1,-8.302684869E0,-4.036152871E0,9.705780398E0,1.339504681E1
8.114802084E-1,-1.599130217E1,-7.035377474E0,1.471495556E1,2.284180812E1
8.214842083E-1,-2.194465648E1,-8.743380157E0,1.239963826E1,2.667893689E1
8.314892084E-1,-2.287090221E1,-7.547842657E0,5.269514254E0,2.465392215E1
8.414942083E-1,-1.880629679E1,-3.770924338E0,1.198819542E0,1.921806020E1
8.514982084E-1,-1.240776355E1,2.275178508E0,1.037885456E0,1.265726036E1
8.615032084E-1,-7.367083586E0,7.668518078E0,1.922121288E0,1.080623155E1
8.715082083E-1,-1.707898602E0,8.255855688E0,-5.287356448E0,9.951492802E0
8.815122084E-1,2.662163027E0,3.061258884E0,-1.113539071E1,1.185138575E1
8.915172084E-1,3.133419372E0,-1.899404270E0,-5.816711898E0,6.874604778E0
9.015212083E-1,2.870371851E0,-5.091891046E0,-4.105873901E0,7.143149829E0
9.115262084E-1,2.286771197E0,-6.897697181E0,-4.614272929E0,8.608081294E0
9.215312083E-1,2.421299257E0,-8.230884569E0,-4.623729047E0,9.746231127E0
9.315352084E-1,3.473943670E0,-7.311882362E0,-4.049982705E0,9.051754980E0
9.415402084E-1,7.027703004E0,-4.468777832E0,2.361724316E0,8.656577070E0
9.515442083E-1,1.163451255E1,-1.523367493E0,1.123879170E1,1.624786046E1
9.615492084E-1,1.324812304E1,-1.770595372E-1,1.148063254E1,1.753137296E1
9.715542084E-1,1.157806821E1,-4.927290756E-1,5.752713538E0,1.293785756E1
9.815582084E-1,8.699538319E0,-1.119458207E0,1.409409353E0,8.883782323E0
9.915632084E-1,7.055367935E0,-1.588383268E0,-6.310864770E-1,7.259438563E0
1.001568208E0,6.688953921E0,-1.788046972E0,-1.505667386E0,7.085636937E0
1.011571958E0,6.345752767E0,-1.995886837E0,-2.312877846E0,7.042836529E0
1.021576958E0,5.056293197E0,-2.688800603E0,-2.617805464E0,6.296717797E0
1.031580958E0,4.335614220E0,-3.137987217E0,-2.513962423E0,5.913080542E0
1.041585958E0,4.165611102E0,-2.680568308E0,-2.489708172E0,5.544042667E0
1.051590958E0,4.188884190E0,-1.583900793E0,-2.083689212E0,4.939357570E0
1.061594958E0,4.584184619E0,-4.594204116E-1,-1.947150733E0,5.001720875E0
1.071599958E0,4.134976662E0,-3.043124914E-2,-2.087701571E0,4.632219329E0
1.081604958E0,2.998309515E0,4.234728992E-2,-2.072745417E0,3.645260869E0
1.091608958E0,1.632493786E0,5.280912817E-2,-1.666005056E0,2.333109001E0
1.101613958E0,7.298327932E-1,2.681135488E-1,-1.288078604E0,1.504555507E0
1.111617958E0,2.645894319E-1,4.059125412E-1,-1.096649973E0,1.198921900E0
1.121622958E0,-1.664477178E-1,3.546605265E-1,-9.582639205E-1,1.035257781E0
1.131627958E0,-4.369963396E-1,3.118589079E-1,-7.853184843E-1,9.512869709E-1
1.141631958E0,-7.227445060E-1,3.637517774E-1,-5.154555948E-1,9.593588728E-1
1.151636958E0,-9.492457598E-1,4.528610051E-1,-2.078053665E-1,1.072069808E0
1.161641958E0,-1.440677923E0,5.381245190E-1,1.487847412E-1,1.545078566E0
1.171645958E0,-1.891443578E0,5.924580163E-1,5.056918410E-1,2.045553605E0
1.181650958E0,-2.313953733E0,6.705084050E-1,5.519559614E-1,2.471562013E0
1.191654958E0,-2.807970074E0,6.920016003E-1,2.865952818E-1,2.906148483E0
1.201659958E0,-3.144648073E0,7.367053181E-1,-2.725407681E-1,3.241268995E0
1.211664958E0,-3.360740698E0,8.429492265E-1,-7.834589235E-1,3.552316051E0
1.221668958E0,-3.474018515E0,8.870875186E-1,-9.120603919E-1,3.699673373E0
1.231673958E0,-3.569992958E0,9.032217407E-1,-6.214701462E-1,3.734552768E0
1.241677958E0,-3.561509525E0,8.767630899E-1,-4.728526354E-2,3.668146604E0
1.251682958E0,-3.405540018E0,8.889323151E-1,7.001258679E-1,3.588604145E0
1.261687958E0,-2.941641809E0,8.763795125E-1,1.311923404E0,3.338029448E0
1.271691958E0,-2.304148830E0,8.157918334E-1,1.628782997E0,2.937269514E0
1.281696958E0,-1.642878441E0,7.495727009E-1,1.816269289E0,2.561199511E0
1.291701958E0,-9.653878757E-1,6.211310077E-1,1.823280100E0,2.154559770E0
1.301705958E0,-4.560500765E-1,5.168295443E-1,1.698728414E0,1.833241030E0
1.311710958E0,-3.893049869E-1,3.283398700E-1,1.517381990E0,1.600566633E0
1.321714958E0,-3.804729138E-1,1.510060984E-1,1.391335755E0,1.450302611E0
1.331719958E0,-2.574904735E-1,2.748659134E-2,1.325520665E0,1.350578354E0
1.341724958E0,5.174201131E-2,-7.475080490E-3,1.510320308E0,1.511224849E0
1.351728958E0,4.005936214E-1,7.012331843E-2,1.896758697E0,1.939867543E0
1.361733958E0,6.640405074E-1,3.437133694E-1,2.174594704E0,2.299554479E0
1.371738958E0,4.563614407E-1,9.061909568E-1,1.881287842E0,2.137449826E0
1.381742958E0,-6.645989165E-1,1.401994498E0,6.522522283E-1,1.683066625E0
1.391747958E0,-2.139777604E0,1.472864506E0,-9.067993596E-1,2.751411116E0
1.401751958E0,-3.643730148E0,1.275036829E0,-2.225128680E0,4.455747519E0
1.411756958E0,-4.863857237E0,1.241270328E0,-3.034148269E0,5.865485057E0
1.421761958E0,-5.788160529E0,1.265974814E0,-2.670807843E0,6.499131409E0
1.431765958E0,-6.581403744E0,9.144109726E-1,-9.914994943E-1,6.718191268E0
1.441770958E0,-8.839255782E0,-1.404431033E-1,4.013694592E0,9.708857365E0
1.451774958E0,-1.086726430E1,-8.769525397E-1,6.765419129E0,1.283110966E1
1.461779958E0,-9.657408137E0,-6.366927874E-1,1.760388618E0,9.837168175E0
1.471784958E0,-8.069140059E0,-3.998413771E-1,-1.505338626E0,8.218086079E0
1.481788958E0,-7.356872009E0,-8.410061967E-1,-6.961800206E-1,7.437440675E0
1.491793958E0,-5.972594574E0,-1.180590262E0,1.848348283E0,6.362552215E0
1.501798958E0,-3.895655973E0,-9.333050805E-1,4.083192843E0,5.720109932E0
1.511802958E0,-2.399038907E0,-7.877672982E-1,4.985677543E0,5.588644340E0
1.521807958E0,-1.572380024E0,-9.747776270E-1,4.038278918E0,4.441876516E0
1.531811958E0,-1.057619809E0,-1.345790477E0,2.092664688E0,2.703508306E0
1.541816958E0,-3.895324436E-1,-1.815723013E0,5.731146960E-1,1.943462384E0
1.551821958E0,4.686508262E-1,-2.349515914E0,-2.994208570E-1,2.414438129E0
1.561825958E0,1.355460017E0,-2.841646235E0,-6.950925846E-1,3.224186546E0
1.571830958E0,1.929340260E0,-3.554161622E0,-7.157015347E-1,4.106902405E0
1.581835958E0,2.036137607E0,-4.586385219E0,9.381623626E-2,5.018922914E0
1.591839958E0,1.936025089E0,-5.788094455E0,2.115687515E0,6.459594742E0
1.601844958E0,1.491149919E0,-6.724828343E0,5.234724491E0,8.651542337E0
1.611848958E0,7.782758054E-1,-5.299379493E0,2.923351718E0,6.102058793E0
1.621853958E0,5.138427866E-1,-2.513766541E0,-1.399761447E0,2.922736516E0
1.631858958E0,2.864521712E-2,-3.774102885E-1,-2.812198488E0,2.837555181E0
1.641862958E0,-1.963524252E-1,5.449511433E-1,-2.314243755E0,2.385634126E0
1.651867958E0,-2.694893986E-2,1.461312747E0,-1.218339887E0,1.902764638E0
1.661872958E0,3.603969374E-1,2.237182716E0,-9.847371894E-1,2.470744784E0
1.671876958E0,6.254047376E-1,2.510480990E0,-1.409546762E0,2.946263390E0
1.681881958E0,6.591969663E-1,2.327147391E0,-1.808853119E0,3.020282309E0
1.691885958E0,6.491356623E-1,1.834860950E0,-2.169097736E0,2.914288387E0
1.701890958E0,7.556444496E-1,9.981986493E-1,-2.548956839E0,2.839820425E0
1.711895958E0,1.009452201E0,-2.446416557E-2,-2.803000233E0,2.979329210E0
1.721899958E0,1.848130621E0,-8.407863414E-1,-2.643026844E0,3.332881540E0
1.731904958E0,2.535311192E0,-1.096027245E0,-2.219575580E0,3.543387407E0
1.741908958E0,3.105685444E0,-1.041275672E0,-1.752256165E0,3.714826883E0
1.751913958E0,3.700396977E0,-8.890668011E-1,-1.501170877E0,4.091074623E0
1.761918958E0,4.365203762E0,-6.235675424E-1,-1.227787818E0,4.577259364E0
1.771922958E0,5.011155031E0,-2.211376029E-1,-5.778259438E-1,5.049203839E0
1.781927958E0,5.451487792E0,3.479485077E-1,2.426594496E-4,5.462580651E0
1.791932958E0,5.620977523E0,9.500883436E-1,2.298786056E-1,5.705339635E0
1.801936958E0,5.743739816E0,1.530241479E0,-7.008827168E-2,5.944501529E0
1.811941958E0,5.549738556E0,1.766060856E0,-4.816170635E-1,5.843844966E0
1.821945958E0,5.160026895E0,1.669306394E0,-9.587919241E-1,5.507426200E0
1.831950958E0,5.089589581E0,1.709036470E0,-8.972471289E-1,5.443324368E0
1.841955958E0,5.055133694E0,2.025969592E0,-3.581817563E-1,5.457767274E0
1.851959958E0,4.921659887E0,2.250868124E0,1.805859929E-1,5.414956570E0
1.861964958E0,4.767686327E0,2.179944906E0,7.273562050E-1,5.292640149E0
1.871969958E0,4.442465946E0,1.947571294E0,1.135618742E0,4.981783572E0
1.881973958E0,3.896275778E0,1.790940174E0,1.347662171E0,4.494955502E0
1.891978958E0,3.067269237E0,1.742436935E0,1.488263733E0,3.828727724E0
1.901982958E0,1.965977159E0,1.585598239E0,1.753737264E0,3.074862982E0
1.911987958E0,8.340977114E-1,1.006081281E0,2.093214326E0,2.467684086E0
1.921992958E0,-6.527571353E-1,-1.437771857E-1,2.189396346E0,2.289152707E0
1.931996958E0,-3.232437292E0,-1.246854419E0,3.012337570E0,4.591021065E0
1.942001958E0,-5.777049065E0,-2.130475123E0,4.466327848E0,7.606661856E0
1.952006958E0,-8.431054641E0,-2.627548095E0,5.304349042E0,1.030159260E1
1.962010958E0,-1.041551076E1,-1.973137075E0,3.434389011E0,1.114321148E1
1.972015958E0,-1.091907648E1,-3.718256128E-1,-4.364221430E-1,1.093411860E1
1.982019958E0,-1.085261351E1,1.654558547E0,-2.564608081E0,1.127359742E1
1.992024958E0,-1.088539651E1,3.410337659E0,-1.401565897E0,1.149289551E1
2.002029958E0,-1.018642269E1,4.806465061E0,-4.604249632E-1,1.127285699E1
2.012034125E0,-7.365693119E0,5.972489909E0,-2.320886192E0,9.762713944E0
2.022039125E0,-3.621508098E0,5.202363660E0,-4.308073542E0,7.664163764E0
2.032044125E0,3.758525902E-1,2.643502808E-1,-7.506323918E0,7.520375323E0
2.042048125E0,1.478661436E-1,-5.519199718E0,-2.778503323E0,6.180898854E0
2.052053125E0,-1.932992431E0,-1.202586435E1,9.238894261E0,1.528774150E1
2.062057125E0,-2.017427979E0,-1.445488544E1,7.333848013E0,1.633398468E1
2.072062125E0,-2.139190983E0,-1.010770514E1,-1.004707770E1,1.441130152E1
2.082067125E0,1.235434806E0,-5.500528389E0,-1.128780657E1,1.261731703E1
2.092071125E0,5.552241164E0,-1.804712706E0,-5.353048747E0,7.920827026E0
2.102076125E0,1.085334325E1,1.595397003E0,6.472645533E0,1.273716968E1
2.112081125E0,1.924296218E1,4.420164081E0,2.848137580E1,3.465570965E1
2.122085125E0,1.451886801E1,2.568401170E0,1.292454164E1,1.960709029E1
2.132090125E0,6.440554844E0,-1.683156109E-1,-3.899197047E0,7.530791091E0
2.142094125E0,4.260208234E0,-1.551470380E0,-4.145012823E0,6.143090903E0
2.152099125E0,4.498347786E0,-2.916028665E0,-2.764947138E0,6.031856153E0
2.162104125E0,4.665925478E0,-4.212190315E0,-2.568671311E0,6.790543433E0
2.172108125E0,5.041647091E0,-5.092979212E0,-2.691045349E0,7.654957068E0
2.182113125E0,4.739375862E0,-5.132368981E0,-2.372611831E0,7.377816874E0
2.192118125E0,4.198007601E0,-3.971444074E0,-2.088433496E0,6.144687975E0
2.202122125E0,4.186195640E0,-2.249152551E0,-2.074179154E0,5.185088263E0
2.212127125E0,4.662813298E0,-5.541090524E-1,-2.286194662E0,5.222599997E0
2.222131125E0,4.286396159E0,3.406576145E-1,-1.945617593E0,4.719604587E0
2.232136125E0,3.602338001E0,8.728255749E-1,-1.668298188E0,4.064711847E0
2.242141125E0,2.702800883E0,1.058554194E0,-1.647759404E0,3.337780797E0
2.252145125E0,1.367570770E0,7.037515801E-1,-1.139209371E0,1.913978602E0
2.262150125E0,2.736420912E-1,2.625867605E-1,-6.926260829E-1,7.896598581E-1
2.272154125E0,-2.186908355E-1,-9.250996828E-2,-4.080021898E-1,4.720694469E-1
2.282159125E0,-4.407294944E-1,-2.657635528E-1,2.329428390E-2,5.151847988E-1
2.292164125E0,-6.228661689E-1,-2.124118030E-1,5.354307067E-1,8.483908770E-1
2.302168125E0,-1.022597618E0,1.187592888E-1,1.032580716E0,1.458092107E0
2.312173125E0,-1.658277668E0,4.859749568E-1,1.495543517E0,2.285324243E0
2.322178125E0,-2.257831281E0,7.702958179E-1,2.128332703E0,3.197023277E0
2.332182125E0,-2.831946581E0,1.040817250E0,3.436801572E0,4.573273120E0
2.342187125E0,-2.942898375E0,1.130823441E0,2.740408713E0,4.177230232E0
2.352191125E0,-2.531288892E0,1.184247111E0,9.602554822E-1,2.954988201E0
2.362196125E0,-2.146060876E0,1.351820710E0,9.958071381E-2,2.538289352E0
2.372201125E0,-1.907529269E0,1.367208828E0,-1.120902470E-1,2.349572751E0
2.382205125E0,-1.844160361E0,1.184383351E0,3.145217299E-2,2.191958166E0
2.392210125E0,-1.821413231E0,9.396305984E-1,3.208779457E-1,2.074467275E0
2.402215125E0,-1.604386805E0,7.287431645E-1,5.507235146E-1,1.846190675E0
2.412219125E0,-1.219090669E0,4.821543860E-1,6.775393894E-1,1.475708147E0
2.422224125E0,-8.534721681E-1,2.081825119E-1,7.638874157E-1,1.164164372E0
2.432228125E0,-6.097502795E-1,-1.710310578E-2,8.369350728E-1,1.035639047E0
2.442233125E0,-4.356798390E-1,-1.118736076E-1,9.560817397E-1,1.056610107E0
2.452238125E0,-2.820655900E-1,-1.392327297E-1,1.100703556E0,1.144768565E0
2.462242125E0,-1.964714161E-1,-1.778231835E-1,1.171667411E0,1.201260432E0
2.472247125E0,-1.168507576E-1,-1.191832119E-1,1.436262398E0,1.445928219E0
2.482252125E0,1.463254023E-1,1.114157706E-1,1.980606308E0,1.989126930E0
2.492256125E0,3.428810182E-1,4.860252428E-1,2.652547281E0,2.718417739E0
2.502261125E0,-1.256503786E-1,8.113941425E-1,3.145873942E0,3.251256885E0
2.512265125E0,-1.416493254E0,9.829689914E-1,2.671922615E0,3.179913778E0
2.522270125E0,-2.342668825E0,1.260726353E0,1.198106182E0,2.917702278E0
2.532275125E0,-3.225092897E0,1.495271621E0,-6.708159685E-1,3.617603554E0
2.542279125E0,-4.303741339E0,1.577154275E0,-2.293935060E0,5.125596861E0
2.552284125E0,-5.271296486E0,1.618979409E0,-3.044986668E0,6.299174928E0
2.562289125E0,-5.960862721E0,1.708403217E0,-2.907158732E0,6.848510627E0
2.572293125E0,-7.107253203E0,1.708768668E0,-8.344947374E-1,7.357263073E0
2.582298125E0,-1.003805778E1,1.198105012E0,4.834355110E0,1.120575963E1
2.592302125E0,-1.184286755E1,3.174348128E-1,5.573329732E0,1.309260406E1
2.602307125E0,-1.079065759E1,-1.792773861E-1,5.336429206E-1,1.080533231E1
2.612312125E0,-9.164991302E0,-8.630706650E-1,-8.823822641E-1,9.247732425E0
2.622316125E0,-7.157845652E0,-1.868176045E0,1.222685830E0,7.497986180E0
2.632321125E0,-4.861001456E0,-2.278360562E0,3.895163637E0,6.632688880E0
2.642325125E0,-3.020163483E0,-2.274328907E0,5.177473233E0,6.410942873E0
2.652330125E0,-1.469347406E0,-2.301066470E0,4.439784998E0,5.212060967E0
2.662335125E0,-2.259445989E-1,-2.797656462E0,3.352161956E0,4.372061576E0
2.672339125E0,1.108854282E0,-4.117428584E0,4.024340326E0,5.863283296E0
2.682344125E0,2.298154849E0,-5.483748634E0,4.578107901E0,7.504137975E0
2.692349125E0,2.440959643E0,-6.272176668E0,3.281914676E0,7.487953531E0
2.702353125E0,2.256724403E0,-6.901206679E0,1.871335881E0,7.498090199E0
2.712358125E0,2.840718282E0,-7.598375464E0,1.465139165E0,8.243277432E0
